 Be Density=1.848, Angle=90.deg
 Photon Energy (eV), Atten Length (microns)
   6980.00  3543.01
   6982.00  3546.04
   6984.00  3549.08
   6986.00  3552.12
   6988.00  3555.16
   6990.00  3558.20
   6992.00  3561.25
   6994.00  3564.30
   6996.00  3567.34
   6998.00  3570.39
   7000.00  3573.44
   7002.00  3576.49
   7004.00  3579.54
   7006.00  3582.59
   7008.00  3585.65
   7010.00  3588.71
   7012.00  3591.77
   7014.00  3594.83
   7016.00  3597.89
   7018.00  3600.95
   7020.00  3604.02
